ANN: Spectral irradiance annually on following wavelength (nm) grid centers     
        117.50        122.50        127.50        135.00        145.00
        155.00        165.00        175.00        185.00        195.00
        205.00        215.00        222.50        227.50        232.50
        237.50        242.50        247.50        252.50        257.50
        262.50        267.50        272.50        277.50        282.50
        287.50        292.50        297.50        302.50        307.50
        312.50        317.50        322.50        327.50        332.50
        337.50        342.50        347.50        352.50        357.50
        362.50        367.50        372.50        377.50        382.50
        387.50        392.50        397.50        402.50        407.50
        412.50        417.50        422.50        427.50        432.50
        437.50        442.50        447.50        452.50        457.50
        462.50        467.50        472.50        477.50        482.50
        487.50        492.50        497.50        502.50        507.50
        512.50        517.50        522.50        527.50        532.50
        537.50        542.50        547.50        552.50        557.50
        562.50        567.50        572.50        577.50        582.50
        587.50        592.50        597.50        602.50        607.50
        615.00        625.00        635.00        645.00        655.00
        665.00        675.00        685.00        695.00        705.00
        715.00        725.00        735.00        745.00        755.00
        765.00        775.00        785.00        795.00        805.00
        815.00        825.00        835.00        845.00        855.00
        865.00        875.00        885.00        895.00        905.00
        915.00        925.00        935.00        945.00        955.00
        965.00        975.00        985.00        995.00       1025.00
       1075.00       1125.00       1175.00       1225.00       1275.00
       1325.00       1375.00       1425.00       1475.00       1525.00
       1575.00       1625.00       1675.00       1725.00       1775.00
       1825.00       1875.00       1925.00       1975.00       2050.00
       2150.00       2250.00       2350.00       2450.00       2550.00
       2650.00       2750.00       2850.00       2950.00       3050.00
       3150.00       3250.00       3350.00       3450.00       3550.00
       3650.00       3750.00       3850.00       3950.00       4050.00
       4150.00       4250.00       4350.00       4450.00       4550.00
       4650.00       4750.00       4850.00       4950.00       5500.00
       6500.00       7500.00       8500.00       9500.00      10500.00
      11500.00      12500.00      13500.00      14500.00      57500.00
 with the following wavelength bands (nm) centered on above wls                  
  0.500000E+01  0.500000E+01  0.500000E+01  0.100000E+02  0.100000E+02
  0.100000E+02  0.100000E+02  0.100000E+02  0.100000E+02  0.100000E+02
  0.100000E+02  0.100000E+02  0.500000E+01  0.500000E+01  0.500000E+01
  0.500000E+01  0.500000E+01  0.500000E+01  0.500000E+01  0.500000E+01
  0.500000E+01  0.500000E+01  0.500000E+01  0.500000E+01  0.500000E+01
  0.500000E+01  0.500000E+01  0.500000E+01  0.500000E+01  0.500000E+01
  0.500000E+01  0.500000E+01  0.500000E+01  0.500000E+01  0.500000E+01
  0.500000E+01  0.500000E+01  0.500000E+01  0.500000E+01  0.500000E+01
  0.500000E+01  0.500000E+01  0.500000E+01  0.500000E+01  0.500000E+01
  0.500000E+01  0.500000E+01  0.500000E+01  0.500000E+01  0.500000E+01
  0.500000E+01  0.500000E+01  0.500000E+01  0.500000E+01  0.500000E+01
  0.500000E+01  0.500000E+01  0.500000E+01  0.500000E+01  0.500000E+01
  0.500000E+01  0.500000E+01  0.500000E+01  0.500000E+01  0.500000E+01
  0.500000E+01  0.500000E+01  0.500000E+01  0.500000E+01  0.500000E+01
  0.500000E+01  0.500000E+01  0.500000E+01  0.500000E+01  0.500000E+01
  0.500000E+01  0.500000E+01  0.500000E+01  0.500000E+01  0.500000E+01
  0.500000E+01  0.500000E+01  0.500000E+01  0.500000E+01  0.500000E+01
  0.500000E+01  0.500000E+01  0.500000E+01  0.500000E+01  0.500000E+01
  0.100000E+02  0.100000E+02  0.100000E+02  0.100000E+02  0.100000E+02
  0.100000E+02  0.100000E+02  0.100000E+02  0.100000E+02  0.100000E+02
  0.100000E+02  0.100000E+02  0.100000E+02  0.100000E+02  0.100000E+02
  0.100000E+02  0.100000E+02  0.100000E+02  0.100000E+02  0.100000E+02
  0.100000E+02  0.100000E+02  0.100000E+02  0.100000E+02  0.100000E+02
  0.100000E+02  0.100000E+02  0.100000E+02  0.100000E+02  0.100000E+02
  0.100000E+02  0.100000E+02  0.100000E+02  0.100000E+02  0.100000E+02
  0.100000E+02  0.100000E+02  0.100000E+02  0.100000E+02  0.500000E+02
  0.500000E+02  0.500000E+02  0.500000E+02  0.500000E+02  0.500000E+02
  0.500000E+02  0.500000E+02  0.500000E+02  0.500000E+02  0.500000E+02
  0.500000E+02  0.500000E+02  0.500000E+02  0.500000E+02  0.500000E+02
  0.500000E+02  0.500000E+02  0.500000E+02  0.500000E+02  0.100000E+03
  0.100000E+03  0.100000E+03  0.100000E+03  0.100000E+03  0.100000E+03
  0.100000E+03  0.100000E+03  0.100000E+03  0.100000E+03  0.100000E+03
  0.100000E+03  0.100000E+03  0.100000E+03  0.100000E+03  0.100000E+03
  0.100000E+03  0.100000E+03  0.100000E+03  0.100000E+03  0.100000E+03
  0.100000E+03  0.100000E+03  0.100000E+03  0.100000E+03  0.100000E+03
  0.100000E+03  0.100000E+03  0.100000E+03  0.100000E+03  0.100000E+04
  0.100000E+04  0.100000E+04  0.100000E+04  0.100000E+04  0.100000E+04
  0.100000E+04  0.100000E+04  0.100000E+04  0.100000E+04  0.850000E+05
 Spectral irradiance (mW/m2/nm) for years from         1610  to         2014
 Following YEAR is TSI (direct) and TSI (from summed spectra) in W/m2            
MS0X= 405
      1610.5      1360.4784      1360.4784
  0.402505E-01  0.130198E+01  0.231500E-01  0.580092E-01  0.570561E-01
  0.140771E+00  0.329297E+00  0.102238E+01  0.258710E+01  0.502923E+01
  0.107263E+02  0.337555E+02  0.476879E+02  0.415545E+02  0.424510E+02
  0.420589E+02  0.525042E+02  0.474012E+02  0.474011E+02  0.998147E+02
  0.128535E+03  0.231640E+03  0.196889E+03  0.175295E+03  0.226060E+03
  0.310611E+03  0.537751E+03  0.504737E+03  0.514227E+03  0.601357E+03
  0.664855E+03  0.671802E+03  0.722585E+03  0.941375E+03  0.943116E+03
  0.916567E+03  0.959249E+03  0.934009E+03  0.104934E+04  0.919735E+03
  0.993400E+03  0.120368E+04  0.106264E+04  0.119426E+04  0.961214E+03
  0.103979E+04  0.106589E+04  0.125363E+04  0.180490E+04  0.170460E+04
  0.169781E+04  0.175721E+04  0.175670E+04  0.164956E+04  0.155174E+04
  0.176664E+04  0.192770E+04  0.198587E+04  0.207432E+04  0.209259E+04
  0.209367E+04  0.202962E+04  0.205879E+04  0.210294E+04  0.207441E+04
  0.187872E+04  0.198621E+04  0.197862E+04  0.190969E+04  0.197942E+04
  0.189101E+04  0.174347E+04  0.185852E+04  0.182860E+04  0.189240E+04
  0.187931E+04  0.185073E+04  0.187906E+04  0.187894E+04  0.181335E+04
  0.180218E+04  0.179428E+04  0.181197E+04  0.179803E+04  0.182052E+04
  0.174849E+04  0.176463E+04  0.176383E+04  0.173807E+04  0.172450E+04
  0.166700E+04  0.166145E+04  0.163611E+04  0.159270E+04  0.151993E+04
  0.153742E+04  0.148430E+04  0.145990E+04  0.143802E+04  0.140695E+04
  0.135562E+04  0.132470E+04  0.129433E+04  0.126375E+04  0.125164E+04
  0.122473E+04  0.118664E+04  0.116127E+04  0.111478E+04  0.109377E+04
  0.107904E+04  0.104863E+04  0.101922E+04  0.989438E+03  0.926142E+03
  0.944081E+03  0.943260E+03  0.920583E+03  0.910456E+03  0.882221E+03
  0.874083E+03  0.843210E+03  0.836567E+03  0.811280E+03  0.795907E+03
  0.779445E+03  0.762105E+03  0.759337E+03  0.746970E+03  0.694927E+03
  0.622243E+03  0.568574E+03  0.516045E+03  0.472976E+03  0.432806E+03
  0.396486E+03  0.361281E+03  0.333252E+03  0.308214E+03  0.284462E+03
  0.262024E+03  0.239478E+03  0.218240E+03  0.196920E+03  0.178483E+03
  0.161535E+03  0.146615E+03  0.133558E+03  0.122356E+03  0.106267E+03
  0.893156E+02  0.759300E+02  0.644954E+02  0.546695E+02  0.472218E+02
  0.411235E+02  0.358324E+02  0.314021E+02  0.276277E+02  0.243111E+02
  0.215431E+02  0.191200E+02  0.170033E+02  0.152356E+02  0.136726E+02
  0.122643E+02  0.109840E+02  0.100045E+02  0.906168E+01  0.820329E+01
  0.749779E+01  0.682597E+01  0.607552E+01  0.545982E+01  0.498972E+01
  0.460380E+01  0.428279E+01  0.397094E+01  0.367567E+01  0.253879E+01
  0.134008E+01  0.763962E+00  0.466040E+00  0.300202E+00  0.202152E+00
  0.140974E+00  0.101286E+00  0.746273E-01  0.561933E-01  0.289266E-02
      1611.5      1360.5048      1360.5048
  0.405568E-01  0.131923E+01  0.233615E-01  0.585265E-01  0.573124E-01
  0.141400E+00  0.330475E+00  0.102530E+01  0.259386E+01  0.504042E+01
  0.107465E+02  0.337883E+02  0.477284E+02  0.415926E+02  0.424883E+02
  0.420972E+02  0.525438E+02  0.474415E+02  0.474391E+02  0.998604E+02
  0.128590E+03  0.231688E+03  0.196937E+03  0.175362E+03  0.226133E+03
  0.310659E+03  0.537789E+03  0.504809E+03  0.514312E+03  0.601435E+03
  0.664916E+03  0.671857E+03  0.722635E+03  0.941417E+03  0.943167E+03
  0.916627E+03  0.959309E+03  0.934074E+03  0.104940E+04  0.919810E+03
  0.993451E+03  0.120373E+04  0.106273E+04  0.119435E+04  0.961375E+03
  0.103996E+04  0.106601E+04  0.125371E+04  0.180491E+04  0.170463E+04
  0.169785E+04  0.175724E+04  0.175674E+04  0.164963E+04  0.155180E+04
  0.176668E+04  0.192771E+04  0.198587E+04  0.207431E+04  0.209258E+04
  0.209367E+04  0.202964E+04  0.205880E+04  0.210295E+04  0.207442E+04
  0.187873E+04  0.198621E+04  0.197863E+04  0.190971E+04  0.197943E+04
  0.189103E+04  0.174349E+04  0.185854E+04  0.182861E+04  0.189241E+04
  0.187932E+04  0.185075E+04  0.187907E+04  0.187896E+04  0.181337E+04
  0.180220E+04  0.179430E+04  0.181199E+04  0.179805E+04  0.182053E+04
  0.174851E+04  0.176465E+04  0.176385E+04  0.173809E+04  0.172452E+04
  0.166703E+04  0.166148E+04  0.163613E+04  0.159273E+04  0.151996E+04
  0.153745E+04  0.148432E+04  0.145992E+04  0.143804E+04  0.140697E+04
  0.135564E+04  0.132472E+04  0.129435E+04  0.126377E+04  0.125166E+04
  0.122475E+04  0.118666E+04  0.116130E+04  0.111480E+04  0.109379E+04
  0.107906E+04  0.104865E+04  0.101924E+04  0.989460E+03  0.926163E+03
  0.944100E+03  0.943277E+03  0.920598E+03  0.910470E+03  0.882236E+03
  0.874098E+03  0.843225E+03  0.836582E+03  0.811296E+03  0.795926E+03
  0.779463E+03  0.762121E+03  0.759352E+03  0.746984E+03  0.694939E+03
  0.622251E+03  0.568582E+03  0.516049E+03  0.472980E+03  0.432808E+03
  0.396487E+03  0.361281E+03  0.333252E+03  0.308214E+03  0.284461E+03
  0.262024E+03  0.239476E+03  0.218237E+03  0.196918E+03  0.178481E+03
  0.161534E+03  0.146614E+03  0.133557E+03  0.122356E+03  0.106267E+03
  0.893153E+02  0.759300E+02  0.644958E+02  0.546700E+02  0.472221E+02
  0.411238E+02  0.358327E+02  0.314023E+02  0.276279E+02  0.243113E+02
  0.215434E+02  0.191202E+02  0.170035E+02  0.152358E+02  0.136728E+02
  0.122645E+02  0.109841E+02  0.100047E+02  0.906184E+01  0.820344E+01
  0.749793E+01  0.682612E+01  0.607578E+01  0.546014E+01  0.499004E+01
  0.460408E+01  0.428302E+01  0.397115E+01  0.367586E+01  0.253890E+01
  0.134013E+01  0.763991E+00  0.466060E+00  0.300217E+00  0.202162E+00
  0.140982E+00  0.101291E+00  0.746315E-01  0.561966E-01  0.289286E-02
      1612.5      1360.8824      1360.8824
  0.449545E-01  0.156686E+01  0.263977E-01  0.659536E-01  0.609929E-01
  0.150434E+00  0.347393E+00  0.106719E+01  0.269084E+01  0.520095E+01
  0.110375E+02  0.342581E+02  0.483093E+02  0.421388E+02  0.430235E+02
  0.426460E+02  0.531127E+02  0.480204E+02  0.479853E+02  0.100516E+03
  0.129386E+03  0.232389E+03  0.197627E+03  0.176316E+03  0.227177E+03
  0.311349E+03  0.538342E+03  0.505833E+03  0.515536E+03  0.602554E+03
  0.665792E+03  0.672642E+03  0.723348E+03  0.942013E+03  0.943886E+03
  0.917487E+03  0.960166E+03  0.935005E+03  0.105023E+04  0.920875E+03
  0.994182E+03  0.120438E+04  0.106393E+04  0.119557E+04  0.963680E+03
  0.104240E+04  0.106778E+04  0.125492E+04  0.180509E+04  0.170508E+04
  0.169834E+04  0.175774E+04  0.175726E+04  0.165062E+04  0.155268E+04
  0.176727E+04  0.192782E+04  0.198578E+04  0.207421E+04  0.209249E+04
  0.209367E+04  0.202984E+04  0.205893E+04  0.210297E+04  0.207457E+04
  0.187890E+04  0.198626E+04  0.197872E+04  0.190990E+04  0.197963E+04
  0.189130E+04  0.174373E+04  0.185873E+04  0.182882E+04  0.189257E+04
  0.187952E+04  0.185097E+04  0.187933E+04  0.187924E+04  0.181365E+04
  0.180250E+04  0.179459E+04  0.181225E+04  0.179832E+04  0.182078E+04
  0.174876E+04  0.176492E+04  0.176415E+04  0.173839E+04  0.172483E+04
  0.166736E+04  0.166183E+04  0.163649E+04  0.159306E+04  0.152032E+04
  0.153780E+04  0.148467E+04  0.146026E+04  0.143840E+04  0.140734E+04
  0.135601E+04  0.132509E+04  0.129471E+04  0.126411E+04  0.125198E+04
  0.122505E+04  0.118696E+04  0.116161E+04  0.111513E+04  0.109411E+04
  0.107936E+04  0.104894E+04  0.101954E+04  0.989766E+03  0.926466E+03
  0.944373E+03  0.943520E+03  0.920823E+03  0.910682E+03  0.882451E+03
  0.874315E+03  0.843444E+03  0.836795E+03  0.811525E+03  0.796188E+03
  0.779709E+03  0.762353E+03  0.759564E+03  0.747178E+03  0.695103E+03
  0.622358E+03  0.568697E+03  0.516118E+03  0.473028E+03  0.432839E+03
  0.396499E+03  0.361285E+03  0.333252E+03  0.308207E+03  0.284453E+03
  0.262018E+03  0.239446E+03  0.218206E+03  0.196893E+03  0.178457E+03
  0.161518E+03  0.146604E+03  0.133548E+03  0.122349E+03  0.106261E+03
  0.893121E+02  0.759293E+02  0.645017E+02  0.546767E+02  0.472274E+02
  0.411284E+02  0.358363E+02  0.314056E+02  0.276311E+02  0.243146E+02
  0.215466E+02  0.191232E+02  0.170066E+02  0.152387E+02  0.136756E+02
  0.122672E+02  0.109868E+02  0.100071E+02  0.906414E+01  0.820560E+01
  0.749998E+01  0.682828E+01  0.607946E+01  0.546471E+01  0.499463E+01
  0.460804E+01  0.428643E+01  0.397418E+01  0.367862E+01  0.254051E+01
  0.134081E+01  0.764416E+00  0.466351E+00  0.300422E+00  0.202310E+00
  0.141088E+00  0.101371E+00  0.746922E-01  0.562439E-01  0.289570E-02
      1613.5      1361.0801      1361.0801
  0.472561E-01  0.169646E+01  0.279868E-01  0.698408E-01  0.629192E-01
  0.155161E+00  0.356248E+00  0.108911E+01  0.274161E+01  0.528497E+01
  0.111898E+02  0.345041E+02  0.486133E+02  0.424247E+02  0.433036E+02
  0.429332E+02  0.534105E+02  0.483234E+02  0.482711E+02  0.100860E+03
  0.129802E+03  0.232756E+03  0.197988E+03  0.176815E+03  0.227724E+03
  0.311710E+03  0.538632E+03  0.506369E+03  0.516176E+03  0.603139E+03
  0.666250E+03  0.673052E+03  0.723720E+03  0.942325E+03  0.944263E+03
  0.917937E+03  0.960615E+03  0.935492E+03  0.105067E+04  0.921432E+03
  0.994565E+03  0.120472E+04  0.106456E+04  0.119620E+04  0.964886E+03
  0.104367E+04  0.106870E+04  0.125555E+04  0.180518E+04  0.170531E+04
  0.169860E+04  0.175800E+04  0.175753E+04  0.165114E+04  0.155314E+04
  0.176758E+04  0.192788E+04  0.198574E+04  0.207416E+04  0.209244E+04
  0.209367E+04  0.202994E+04  0.205900E+04  0.210298E+04  0.207465E+04
  0.187899E+04  0.198629E+04  0.197878E+04  0.191000E+04  0.197973E+04
  0.189144E+04  0.174385E+04  0.185883E+04  0.182892E+04  0.189265E+04
  0.187962E+04  0.185109E+04  0.187947E+04  0.187938E+04  0.181380E+04
  0.180265E+04  0.179474E+04  0.181239E+04  0.179845E+04  0.182091E+04
  0.174889E+04  0.176506E+04  0.176430E+04  0.173855E+04  0.172499E+04
  0.166753E+04  0.166201E+04  0.163667E+04  0.159323E+04  0.152051E+04
  0.153798E+04  0.148485E+04  0.146044E+04  0.143859E+04  0.140753E+04
  0.135620E+04  0.132529E+04  0.129490E+04  0.126429E+04  0.125215E+04
  0.122521E+04  0.118712E+04  0.116178E+04  0.111530E+04  0.109427E+04
  0.107952E+04  0.104910E+04  0.101970E+04  0.989927E+03  0.926625E+03
  0.944516E+03  0.943647E+03  0.920941E+03  0.910793E+03  0.882563E+03
  0.874428E+03  0.843559E+03  0.836906E+03  0.811645E+03  0.796326E+03
  0.779837E+03  0.762475E+03  0.759675E+03  0.747280E+03  0.695189E+03
  0.622414E+03  0.568757E+03  0.516154E+03  0.473053E+03  0.432856E+03
  0.396506E+03  0.361288E+03  0.333252E+03  0.308204E+03  0.284449E+03
  0.262015E+03  0.239430E+03  0.218189E+03  0.196880E+03  0.178445E+03
  0.161509E+03  0.146599E+03  0.133544E+03  0.122346E+03  0.106257E+03
  0.893104E+02  0.759290E+02  0.645048E+02  0.546803E+02  0.472301E+02
  0.411307E+02  0.358382E+02  0.314073E+02  0.276328E+02  0.243162E+02
  0.215483E+02  0.191248E+02  0.170082E+02  0.152402E+02  0.136770E+02
  0.122686E+02  0.109882E+02  0.100083E+02  0.906535E+01  0.820673E+01
  0.750105E+01  0.682940E+01  0.608138E+01  0.546710E+01  0.499703E+01
  0.461012E+01  0.428821E+01  0.397577E+01  0.368007E+01  0.254135E+01
  0.134116E+01  0.764638E+00  0.466503E+00  0.300530E+00  0.202387E+00
  0.141144E+00  0.101412E+00  0.747240E-01  0.562686E-01  0.289719E-02
      1614.5      1361.0638      1361.0638
  0.470668E-01  0.168580E+01  0.278561E-01  0.695211E-01  0.627607E-01
  0.154773E+00  0.355520E+00  0.108731E+01  0.273743E+01  0.527806E+01
  0.111773E+02  0.344838E+02  0.485883E+02  0.424012E+02  0.432806E+02
  0.429096E+02  0.533860E+02  0.482985E+02  0.482476E+02  0.100832E+03
  0.129768E+03  0.232726E+03  0.197958E+03  0.176774E+03  0.227679E+03
  0.311681E+03  0.538608E+03  0.506325E+03  0.516124E+03  0.603091E+03
  0.666213E+03  0.673018E+03  0.723690E+03  0.942299E+03  0.944232E+03
  0.917900E+03  0.960578E+03  0.935452E+03  0.105063E+04  0.921387E+03
  0.994533E+03  0.120469E+04  0.106451E+04  0.119615E+04  0.964786E+03
  0.104357E+04  0.106863E+04  0.125550E+04  0.180517E+04  0.170529E+04
  0.169857E+04  0.175798E+04  0.175751E+04  0.165110E+04  0.155310E+04
  0.176755E+04  0.192788E+04  0.198574E+04  0.207416E+04  0.209244E+04
  0.209367E+04  0.202993E+04  0.205900E+04  0.210298E+04  0.207464E+04
  0.187899E+04  0.198629E+04  0.197877E+04  0.190999E+04  0.197972E+04
  0.189142E+04  0.174384E+04  0.185882E+04  0.182891E+04  0.189264E+04
  0.187961E+04  0.185108E+04  0.187946E+04  0.187937E+04  0.181379E+04
  0.180264E+04  0.179473E+04  0.181238E+04  0.179844E+04  0.182090E+04
  0.174887E+04  0.176505E+04  0.176429E+04  0.173854E+04  0.172498E+04
  0.166752E+04  0.166199E+04  0.163665E+04  0.159322E+04  0.152049E+04
  0.153797E+04  0.148483E+04  0.146043E+04  0.143858E+04  0.140752E+04
  0.135619E+04  0.132527E+04  0.129488E+04  0.126428E+04  0.125214E+04
  0.122520E+04  0.118711E+04  0.116177E+04  0.111528E+04  0.109426E+04
  0.107950E+04  0.104909E+04  0.101968E+04  0.989913E+03  0.926612E+03
  0.944505E+03  0.943637E+03  0.920931E+03  0.910784E+03  0.882554E+03
  0.874419E+03  0.843550E+03  0.836897E+03  0.811635E+03  0.796314E+03
  0.779827E+03  0.762465E+03  0.759666E+03  0.747272E+03  0.695182E+03
  0.622409E+03  0.568752E+03  0.516151E+03  0.473051E+03  0.432854E+03
  0.396506E+03  0.361287E+03  0.333252E+03  0.308204E+03  0.284450E+03
  0.262016E+03  0.239431E+03  0.218191E+03  0.196881E+03  0.178446E+03
  0.161510E+03  0.146600E+03  0.133544E+03  0.122346E+03  0.106258E+03
  0.893105E+02  0.759290E+02  0.645046E+02  0.546800E+02  0.472299E+02
  0.411305E+02  0.358381E+02  0.314071E+02  0.276326E+02  0.243161E+02
  0.215482E+02  0.191247E+02  0.170081E+02  0.152401E+02  0.136769E+02
  0.122685E+02  0.109881E+02  0.100082E+02  0.906525E+01  0.820664E+01
  0.750096E+01  0.682931E+01  0.608123E+01  0.546690E+01  0.499683E+01
  0.460995E+01  0.428806E+01  0.397564E+01  0.367995E+01  0.254128E+01
  0.134113E+01  0.764620E+00  0.466490E+00  0.300521E+00  0.202380E+00
  0.141140E+00  0.101409E+00  0.747214E-01  0.562666E-01  0.289707E-02
      1615.5      1360.9785      1360.9785
  0.460727E-01  0.162982E+01  0.271697E-01  0.678421E-01  0.619287E-01
  0.152730E+00  0.351695E+00  0.107784E+01  0.271551E+01  0.524177E+01
  0.111115E+02  0.343776E+02  0.484570E+02  0.422777E+02  0.431596E+02
  0.427856E+02  0.532574E+02  0.481676E+02  0.481241E+02  0.100683E+03
  0.129588E+03  0.232567E+03  0.197802E+03  0.176558E+03  0.227443E+03
  0.311525E+03  0.538483E+03  0.506093E+03  0.515847E+03  0.602838E+03
  0.666015E+03  0.672841E+03  0.723529E+03  0.942164E+03  0.944070E+03
